time,voltage,current,soc,temperature,power,remaining_distance
0,14.4236799197291,1.44236799197291,100,25,20.8042542426796,200
0.210147079705922,14.4278933780055,1.3572242833637,99.9836576071936,25.0000387079304,19.5818872504114,199.967315214387
0.420294159411845,14.431634355687,1.28157231227301,99.9682538461239,25.0000732194543,18.4951830110963,199.936507692248
0.630441239117767,14.4349779437024,1.21390834357877,99.9536866802269,25.0001041821378,17.5227401652359,199.907373360454
0.840588318823689,14.437983551414,1.1530298307815,99.9398698706384,25.00013297311,16.647425731113,199.879739741277
1.15437806769947,14.4419456486487,1.07270189974151,99.9204695428388,25.0001716668858,15.4919025332691,199.840939085678
1.53695513913442,14.4460832390349,0.98872348901816,99.8985624848329,25.0002124916915,14.2831818227454,199.797124969666
1.91953221056936,14.4496163544179,0.916935611676647,99.8783107771135,25.0002474208839,13.249367810431,199.756621554227
2.30210928200431,14.4526680653959,0.854867139386484,99.8594815796785,25.000277584848,12.3551110055674,199.718963159357
2.68468635343925,14.4553303958354,0.800667951325482,99.841887975049,25.0003039000283,11.5739197737665,199.683775950098
3.15659153448163,14.4581802310595,0.74259527330202,99.8216581441764,25.0003321532128,10.7365763001335,199.643316288353
3.62849671552401,14.4606421145292,0.692379760168421,99.8028478065941,25.0003565779343,10.0122559191391,199.605695613188
4.10040189656639,14.4627904076767,0.648522932449431,99.7852706141519,25.0003779056308,9.37945124658801,199.570541228304
4.72486528792515,14.4652451154609,0.598365634105245,99.7636418290708,25.0004023853516,8.65550556600054,199.527283658142
5,14.4662095296931,0.578648381187725,99.7546463453985,25.0004119496975,8.37084872627937,199.509292690797
5.27513471207485,14.465539587435,0.59164412905329,99.7457022317082,25.0004216254715,8.55845157049386,199.491404463416
6.19711102917752,14.4630599028192,0.639794822432201,99.7141645220075,25.0004595493134,9.25339084235051,199.428329044015
6.78981009017209,14.4612454069986,0.675116146486828,99.6925160082139,25.0004866971469,9.76302027257323,199.385032016428
7.56408955711783,14.4585559565151,0.727589929074011,99.6623469384231,25.0005257924089,10.5198997029135,199.324693876846
8.73185102923658,14.4536174398762,0.82420859990051,99.6120099791279,25.0005975047967,11.912795793618,199.224019958256
9.59266098976351,14.4490587532872,0.913643894682572,99.5704555142039,25.0006632913898,13.2012943138506,199.140911028408
10,14.4465420854264,0.963102805695096,99.5492201768874,25.0006993470096,13.9135052150665,199.098440353775
10.2359053537336,14.449354429409,0.906278044445,99.5369702615897,25.000718827273,13.0951326757775,199.073940523179
10.4718107074672,14.4518524654275,0.855785247683914,99.5254235903611,25.0007362161373,12.3676821416172,199.050847180722
10.7077160612008,14.4540860925025,0.810622027573271,99.5145037459796,25.0007518364808,11.716800575023,199.029007491959
10.9436214149344,14.4560947842445,0.769985397358821,99.5041461417104,25.0007663746823,11.1309818867033,199.008292283421
11.3279513159042,14.4589671754184,0.711849311590411,99.4883263254064,25.000787600266,10.29260583013,198.976652650813
11.8228054976632,14.4620819203607,0.648781741947277,99.4696231596654,25.0008109367049,9.38273470047581,198.939246319331
12.3176596794222,14.4646892914176,0.595975022719152,99.4525127960469,25.0008305571416,8.62059352907807,198.905025592094
12.8125138611811,14.466904002845,0.551118584063348,99.4367449052639,25.0008472568903,7.97297964982834,198.873489810528
13.3073680429401,14.4688088059124,0.512543251561064,99.4221238633935,25.0008616581869,7.4158903115977,198.844247726787
13.9390704163545,14.4708854545976,0.470499624085139,99.4048741267903,25.0008774739449,6.8085461665673,198.809748253581
14.7077197289251,14.4729956901104,0.427802389259552,99.385694148317,25.0008936881036,6.19158213597244,198.771388296634
15,14.4737014248589,0.41353432642454,99.3788634226691,25.00089908064,5.98537236959892,198.757726845338
15.2922802710749,14.4731650655687,0.424144930932476,99.3720623915465,25.000904571004,6.13871959710995,198.744124783093
16.3072654589042,14.4710648387231,0.465633861226413,99.3469759389219,25.0009274116841,6.73821779691242,198.693951877844
16.9597559367944,14.4694835755918,0.496878981957729,99.3295306482268,25.0009440704005,7.18958226849414,198.659061296454
17.7840534117966,14.4671557887371,0.542899136451557,99.3057226905166,25.0009676394891,7.85420638461554,198.611445381033
18.9037909039599,14.463204678915,0.621039634996364,99.2695197493784,25.0010072161928,8.98222335467109,198.539039498757
19.7161712824905,14.4595454983127,0.693450531553188,99.2398568044041,25.0010433677938,10.0269795118224,198.479713608808
20,14.458057893628,0.722902894681403,99.22869008839,25.0010578664381,10.451771902775,198.45738017678
20.2838287175095,14.4599750773094,0.684161790841024,99.2175966060248,25.0010714359024,9.89296244440859,198.43519321205
20.6335843003875,14.4620727098024,0.641779416320251,99.2047145132534,25.0010862033396,9.281460582478,198.409429026507
20.9833398832655,14.4639258006178,0.604341582407493,99.1926079083576,25.0010993491677,8.74115180616992,198.385215816715
21.4031480631261,14.4658830330514,0.564793780182838,99.1789742253415,25.001113815306,8.17024076191989,198.357948450683
22.0115451774024,14.4683045620737,0.515875824184564,99.1607109956531,25.001132208116,7.46384854051307,198.321421991306
22.6199422916788,14.470341752057,0.474750309796507,99.1439694933964,25.0011479092595,6.8697992296504,198.287938986793
23.2283394059552,14.4720796556136,0.439702387805735,99.1285153161085,25.0011614088205,6.3634079810881,198.257030632217
23.9980267344051,14.4739448074532,0.402141822160056,99.1105165155269,25.0011760573544,5.82057853871331,198.221033031054
25,14.4759476404169,0.361898691010423,99.0892512886372,25.0011920329239,5.23882650220231,198.178502577274
25.5599943194478,14.4742900562763,0.395040229785563,99.0774768026424,25.0012014507678,5.71792686981428,198.154953605285
26.1199886388956,14.4722955756786,0.434863509961432,99.0645673198661,25.001212721283,6.29347325123888,198.129134639732
26.479984987112,14.4707855383311,0.464997650173104,99.0555687995452,25.0012209440018,6.72888127148287,198.11113759909
26.9363573008327,14.4685409608517,0.509778945365596,99.0432115481489,25.0012326357034,7.37575755200191,198.086423096298
27.592948171241,14.464429029548,0.591775741919215,99.0231206939565,25.0012537593423,8.5596982203986,198.046241387913
28.0321399643492,14.4608504965055,0.663123234393399,99.0078112125238,25.0012717483165,9.5893259533221,198.015622425048
28.4713317574574,14.456290997607,0.754028647936482,98.9905222826264,25.0012945885454,10.900457555102,197.981044565253
28.7871445427001,14.4521558763565,0.836487264404583,98.9765693587306,25.0013151003392,12.089044333762,197.953138717461
29.1029573279427,14.4470065663839,0.939194574498304,98.9609920524181,25.001340615162,13.5685501848891,197.921984104836
29.3424843118893,14.4421724606322,1.0356450097261,98.9478524032685,25.0013644186952,14.9569638384575,197.895704806537
29.5820112958358,14.4362341954387,1.15416511783321,98.9332824417332,25.0013936577802,16.6617979412463,197.866564883466
29.775599783982,14.430342591028,1.27179723032501,98.9202369310866,25.0014225577964,18.3524697399104,197.840473862173
29.9691882721282,14.4231165212163,1.41612833082244,98.9057827242634,25.0014580258141,20.4249839244477,197.811565448527
30,14.4218124937903,1.44218124937903,98.903336350459,25.0014643417907,20.7988675606046,197.806672700918
30.0308117278718,14.4224633992223,1.42903701014126,98.900878928357,25.0014706685262,20.6102339748964,197.801757856714
30.2219334545288,14.4262501849862,1.35257076779836,98.8861115483181,25.0015058649481,19.512524289158,197.772223096636
30.4130551811859,14.4296512322984,1.28387217121479,98.872114839242,25.0015376157661,18.5258276574831,197.744229678484
30.604176907843,14.432722061544,1.22181575983023,98.8588123002463,25.001567247814,17.6341272720439,197.717624600493
30.9016203363843,14.4369503994326,1.13633361686209,98.8393285214792,25.0016088570345,16.4051920638458,197.678657042958
31.2677172372192,14.4414051088254,1.04624140058793,98.8171331339868,25.0016532239322,15.1091959075153,197.634266267974
31.6338141380541,14.4452043748676,0.96938591851291,98.7966354974656,25.0016912232829,14.0029777110378,197.593270994931
31.999911038889,14.4484834832079,0.903045360184291,98.7775940727946,25.0017240904717,13.0476359712103,197.555188145589
32.3660079397239,14.4513423816797,0.845206359883841,98.7598154745558,25.0017528233087,12.2143664898546,197.519630949112
32.7321048405587,14.4538575063143,0.794328042858582,98.7431424616765,25.0017781836158,11.4811043447474,197.486284923353
33.2120697018101,14.4567302139784,0.736230129095354,98.7227365133254,25.0018073599811,10.643480351734,197.445473026651
33.7948472362333,14.4597012395063,0.676173786697178,98.6998721446683,25.001837781739,9.77727094162683,197.399744289337
34.3776247706566,14.4622258377099,0.625182788141372,98.6788054397769,25.0018637917273,9.04153467194965,197.357610879554
35,14.4645355927163,0.578581423708652,98.6579945223484,25.0018877665057,8.36891159651826,197.315989044697
35.6223752293434,14.4630148558525,0.608834470622207,98.6374662379162,25.0019121818156,8.80558199336411,197.274932475832
36.5244556712893,14.4605015543147,0.658760065479098,98.6057031201569,25.0019533028162,9.52600095078098,197.211406240314
37.1043645268259,14.4586555597005,0.695419387908068,98.5838892130179,25.0019826281701,10.0548293993005,197.167778426036
37.8447491067722,14.4559774418206,0.748604994593438,98.5541910634104,25.0020236986314,10.821816914677,197.108382126821
39.0722926427722,14.4505015918275,0.857319121156375,98.4994315698661,25.0021069853387,12.3886913249743,196.998863139732
39.7945679150293,14.4464678233525,0.937415280503971,98.4634234510164,25.0021671203464,13.5423396869195,196.926846902033
40,14.4451789899788,0.963011932665252,98.4525787642181,25.0021861208153,13.9108797368349,196.905157528436
40.2054320849707,14.4476500527914,0.913152443139185,98.4418725320107,25.0022037425567,13.1929069433264,196.883745064021
40.4108641699414,14.4498780038193,0.868201757385499,98.431707329025,25.00221973022,12.545409476922,196.86341465805
40.6162962549122,14.451897148609,0.827469002618042,98.4220310740346,25.0022343085056,11.958496919498,196.844062148069
40.8804545573202,14.4542309343905,0.780388782856597,98.4102330467256,25.0022517332951,11.2799196860171,196.820466093451
41.2944144841807,14.4573985987743,0.716503961991264,98.3930204464152,25.002275948471,10.3587833761087,196.78604089283
41.7083744110411,14.4600885111697,0.662286743483032,98.3771658880932,25.0022968109995,9.57672493053897,196.754331776186
42.1223343379015,14.4624016099893,0.615702824599632,98.3624704306451,25.0023149074958,8.90454152176471,196.72494086129
42.536294264762,14.4644130089126,0.575235548297201,98.3487759650412,25.0023307658981,8.320444547979,196.697551930082
43.081882516673,14.4666951181044,0.529383047864572,98.3320352170159,25.0023489998851,7.65842315414963,196.664070434032
43.7535517831014,14.4690543797647,0.482074832780555,98.3131639622183,25.0023681614964,6.97516697061782,196.626327924437
44.4252210495297,14.4710317127262,0.44252867693969,98.2959131910763,25.0023844577074,6.40384651778504,196.591826382153
45,14.4724872301906,0.413499635148304,98.2822457728876,25.0023966000213,5.98436818937232,196.564491545775
45.5747789504703,14.4714309991799,0.434895342476126,98.2687002291425,25.002409035932,6.29355794050796,196.537400458285
46.2148898496332,14.4701141173105,0.461488081515564,98.252761762489,25.0024243949553,6.6777852033089,196.505523524978
46.8045723943028,14.4687464372372,0.489035562601615,98.2371921180103,25.0024400765734,7.07573155407441,196.474384236021
47.644358724308,14.4664860527493,0.534468081189916,98.2133164411001,25.0024648615794,7.73187504217363,196.4266328822
48.8724847062924,14.462292463645,0.618505906391078,98.1739831824696,25.0025097169902,8.9450133087196,196.347966364939
49.6759093995429,14.458746634638,0.689418671487151,98.1447937685035,25.0025464760479,9.96812989622145,196.289587537007
50,14.4570734694026,0.722853673470129,98.1320797631623,25.0025634855867,10.4503486649852,196.264159526325
50.3240906004571,14.4592515179042,0.678954028354448,98.1194599659453,25.0025792892302,9.8171670650712,196.238919931891
50.6481812009142,14.4611813333436,0.640081374095145,98.1075853277341,25.0025934420497,9.25633281888562,196.215170655468
50.9722718013714,14.4629033562828,0.605419104386148,98.0963726889024,25.0026062042541,8.75611799678416,196.192745377805
51.3926821083744,14.4648788647842,0.565679404465381,98.0826965254681,25.0026214652156,8.18248406189503,196.165393050936
52.0191996791952,14.4673876381578,0.51528075418963,98.0638842884471,25.0026414679539,7.45476641334371,196.127768576894
52.6457172500159,14.4694907003725,0.473121572625646,98.0466828599807,25.0026585989275,6.84582819525239,196.093365719961
53.2722348208367,14.4712798819461,0.43734501473592,98.0308377679077,25.0026733993918,6.32894211321736,196.061675535815
54.0441043066089,14.4731498435398,0.400070997835026,98.0128828827133,25.0026891646361,5.79028749972081,196.025765765427
55,14.4750743906652,0.36187685976663,97.9926511417224,25.0027057842406,5.23819446538228,195.985302283445
55.5632380429091,14.4734269380362,0.395226605990708,97.9808058785465,25.0027160962288,5.72028340577454,195.961611757093
56.1264760858181,14.4714386982489,0.435346937974615,97.9678111391744,25.0027282662833,6.30009652537001,195.935622278349
56.4885576848311,14.4699297432466,0.465739915279275,97.9587481678223,25.0027370741047,6.73922385271673,195.917496335645
56.9439810913114,14.4677010350498,0.5105721740442,97.9463971851138,25.0027494134659,7.38680557088689,195.892794370228
57.5976493235191,14.463624702268,0.592426484942535,97.9263695411264,25.0027713836713,8.56863434189265,195.852739082253
58.0360735717526,14.4600656221167,0.663805676985322,97.9110705788708,25.0027899566153,9.59867364954139,195.822141157742
58.474497819986,14.4555282785257,0.754736697071017,97.8937949295949,25.0028133616387,10.9101176673512,195.78758985919
58.7898826383426,14.4514099047501,0.837240220684844,97.8798481142884,25.0028342736192,12.0993016178601,195.759696228577
59.1052674566992,14.4462798159687,0.939994366160777,97.8642783140842,25.0028601749982,13.5794216389927,195.728556628168
59.3445661561312,14.4414605632562,1.03652240616301,97.8511400392781,25.0028842705483,14.9688974515345,195.702280078556
59.5838648555631,14.4355391716505,1.1551366348827,97.8365716737747,25.0029137918519,16.6750201414579,195.673143347549
59.7772787473048,14.4296629042569,1.27286742921411,97.8235269594635,25.0029429122673,18.3670479253677,195.647053918927
59.9706926390466,14.4224545319628,1.41731941409763,97.8090736398281,25.0029785898207,20.4412248070912,195.618147279656
60,14.4212170778765,1.44212170778765,97.806745787798,25.0029846278714,20.7971502007237,195.613491575596
60.0293073609534,14.4218355515059,1.42961409034855,97.8044079267535,25.00299067665,20.6176593131225,195.608815853507
60.2204052592521,14.4256197728048,1.35309327625915,97.7896365509386,25.0030260779773,19.5192091204534,195.579273101877
60.4115031575507,14.4290188489318,1.28434797347738,97.7756362876133,25.0030580406348,18.5318811178924,195.551272575227
60.6026010558493,14.4320882348057,1.22225125504585,97.7623305697119,25.0030878888446,17.6396379579237,195.524661139424
60.8999136612955,14.4363139780878,1.13674161904331,97.7428483942224,25.0031298313419,16.4103589244692,195.485696788445
61.2658214789016,14.4407668357456,1.0466263773888,97.7206564103722,25.0031746228988,15.1140874800127,195.441312820744
61.6317292965076,14.4445657609492,0.969750053813842,97.7001617464996,25.0032130633708,14.0076184239981,195.400323492999
61.9976371141137,14.4478456928675,0.903390674446644,97.6811229455011,25.0032463838369,13.0520490647806,195.362245891002
62.3635449317198,14.4507063335174,0.845534562531804,97.6633466839284,25.0032755785736,12.2185716579862,195.326693367857
62.7294527493259,14.4532239276128,0.794640678225267,97.6466757688495,25.0033014066449,11.4851196643799,195.293351537699
63.2091525851065,14.4561006439553,0.73652631622556,97.6262729756331,25.0033312002996,10.6472985542784,195.252545951266
63.7915912055722,14.4590774930813,0.67645361341477,97.6034125844952,25.0033623741161,9.780895216839,195.20682516899
64.3740298260379,14.4616087751617,0.625447700842005,97.5823493176769,25.0033891358112,9.04497995890144,195.164698635354
65,14.463939997928,0.578557599917122,97.5614140008001,25.0034140574914,8.3682224105465,195.1228280016
65.6259701739621,14.4624269372862,0.608994042977205,97.5407647811197,25.0034393997349,8.80753185180035,195.081529562239
66.5278531413802,14.4599373093375,0.658938334769525,97.5090001529162,25.0034816051195,9.52820701148658,195.018000305832
67.1076350490061,14.4581068104841,0.695611837218473,97.4871850506192,25.0035116108652,10.0572302411418,194.974370101238
67.8476729152525,14.4554496531562,0.748804402475431,97.4574927530638,25.0035535208074,10.8243043400453,194.914985506128
69.0734504960959,14.4500166789811,0.857408149136839,97.4028022159573,25.0036380345105,12.3895620557216,194.805604431915
69.7955652459931,14.4460064908295,0.93750668836448,97.3667984804304,25.0036989025432,13.5432277053093,194.733596960861
70,14.4447307868764,0.962982052458424,97.3560060929797,25.003718013169,13.9100165003556,194.712012185959
70.2044347540069,14.4471874895361,0.913353502359817,97.3453508652691,25.0037357608256,13.1953892928168,194.690701730538
70.4088695080139,14.4494038792052,0.868589659702458,97.3352316677138,25.0037518920282,12.5506027983422,194.670463335428
70.6542443476655,14.4517940740721,0.82033357402979,97.3237200213899,25.0037692710722,11.8552918839261,194.64744004278
70.8996191873171,14.4539331230648,0.777156058097231,97.3128315835474,25.0037854256449,11.2329616899221,194.625663167095
71.273917023562,14.4567957277717,0.719401143196478,97.2972716357068,25.0038076395725,10.4002353735169,194.594543271414
71.7513148990077,14.4598860476018,0.657112052255627,97.2790176225115,25.0038321394141,9.50176539612215,194.558035245023
72.2287127744534,14.4624875433082,0.604749401712562,97.2622840120329,25.0038530606041,8.74618068909101,194.524568024066
72.7061106498991,14.4647087239315,0.560116634458096,97.2468366628427,25.0038711444994,8.10192396886519,194.493673325685
73.1835085253448,14.4666283019048,0.521618163888505,97.232491721328,25.0038869771888,7.54605609249704,194.464983442656
73.8021554507687,14.468760499028,0.478959423529327,97.2152971588807,25.0039049032387,6.92994918779836,194.430594317761
74.5591950765605,14.4709456117805,0.435392809857005,97.1960693568639,25.0039237139021,6.30054567120099,194.392138713728
75,14.4720481500518,0.41348709000148,97.1856751779954,25.0039333154833,5.98400507592621,194.371350355991
75.4408049234395,14.4712569546809,0.429699957636777,97.1753507057182,25.0039430865798,6.21829850037728,194.350701411436
76.4455495431563,14.4691867353927,0.471872270134251,97.1501882100199,25.0039690926558,6.82760799182613,194.30037642004
77.0914567986886,14.4676206796351,0.503648329250323,97.1326855479903,25.003987780429,7.28659298352566,194.265371095981
77.8990162752775,14.465332449277,0.549947687144061,97.1090510633366,25.0040136239947,7.95517612424983,194.218102126673
79.1897180324594,14.4606321045997,0.644671775535149,97.066220578902,25.0040651541653,9.32236137423284,194.132441157804
79.8523255153381,14.4575209744434,0.707206494499861,97.0413382273002,25.0040978413562,10.2244527274943,194.0826764546
80,14.4567426828384,0.722837134141921,97.0354720896362,25.004105872967,10.4498704498901,194.070944179272
80.1476744846619,14.4577677379167,0.702150453723945,97.0296266922004,25.0041136543929,10.1515281770136,194.059253384401
